Combustível calcinador (t/h),Combustível forno (t/h),Alimentação (t/h),Velocidade do exaustor(%),Temperatura Ar Secundário,O2% - CAIXA,NOx (ppm) - CAIXA,O2% - Saida da Torre de ciclone,Temperatura na Caixa de Fumaça ,Torque do Motor ,CaO Livre
11.225744394112896,9.633204373832749,348.5911078228403,59.277828868716924,1033.0461985236818,3.242954846824425,1061.1051647399165,3.773007666832466,1043.849938782879,41.27701122009008,1.5319786666666666
11.213478169486562,9.632800572434885,348.4304669074218,59.27382257290753,1033.724085988657,3.2458828491255796,1060.5974614560191,3.781666075706091,1043.9703127916782,41.303915377519985,1.5315973333333335
11.201966811130406,9.63240438300325,348.26951153022776,59.26980908158589,1034.4291026448318,3.247136599644717,1059.7843269192451,3.7865691100413756,1044.115353863111,41.33061946815999,1.5312055555555555
11.190754481928087,9.6320049672691,348.10954266989705,59.26585345189109,1035.139024811321,3.248026805495859,1059.4342199655878,3.791435728104197,1044.251657952282,41.358374762312316,1.5308173333333333
11.17718043638621,9.631607012607972,347.9500626798807,59.261799480219885,1035.8499052107252,3.24774996560331,1059.184289217827,3.7954314614198656,1044.4045981032382,41.38466935530372,1.5304326666666666
11.161108374703312,9.631208287732386,347.80307752573003,59.26148165158847,1036.5622611537128,3.246785625417801,1058.790382582603,3.798352655722833,1044.5826515385722,41.41131666539306,1.5300515555555556
11.145366504962992,9.63080640086526,347.6625293996842,59.26147891717949,1037.2762233346612,3.245894848614751,1058.327788715034,3.802172930451631,1044.7627237616673,41.43846818413175,1.5296739999999998
11.129574111821034,9.630408839202897,347.522688093867,59.26150381870278,1037.9931658857038,3.2450552050015142,1057.7770208136662,3.8081226333304774,1044.9345321616352,41.46709378578812,1.5292999999999999
11.11105572903564,9.630006775761421,347.38240863008645,59.261486893169405,1038.7179002406372,3.244841553701586,1056.879421564671,3.8142503562369394,1045.1419649486656,41.495516446951896,1.5289295555555555
11.097087778468364,9.63040587774421,347.2418210480603,59.25351544463926,1039.0301126466743,3.241109139624583,1055.626732078828,3.8199609030950414,1045.2734882547124,41.50408617164724,1.528287333333333
11.088066735769118,9.630806679085646,347.10137490137737,59.24554176757303,1039.349177218568,3.246232272647587,1054.4358564641277,3.827460345072568,1045.3694880530627,41.50702728303157,1.5276008888888888
11.077952971464942,9.631210782765127,346.96186115259957,59.237455581761054,1039.393214891788,3.245171460525468,1053.1656759873656,3.833546623346697,1045.5372360304386,41.51564561700951,1.5268666666666666
11.067555881795268,9.631610821937675,346.82137322925433,59.229482901322854,1039.4885143612764,3.2492953786149665,1051.8536530827125,3.842214485621425,1045.6572076317045,41.52134700400909,1.5261771111111109
11.058949496075355,9.632007786828709,346.6810505885426,59.221345963688655,1039.6016191750407,3.2562445051391014,1050.6804931527215,3.8496187152817156,1045.7509235520085,41.52820222965228,1.525491111111111
11.050833906918543,9.632410155841002,346.54012671690475,59.2132989576576,1039.7394410948032,3.264645115668938,1049.3317004282574,3.8550254134877426,1045.840914051942,41.53485707735038,1.5248086666666665
11.04229641397133,9.632812552150245,346.4009116288662,59.20536747825544,1039.901143564833,3.2721591278276656,1047.9494114204253,3.8586685667031166,1045.9375451474707,41.54594981369923,1.5241297777777776
11.032564327658761,9.633204258846636,346.2620387695545,59.1973924992365,1040.0798360679917,3.2790492974305354,1046.6264827426048,3.861279285072135,1046.0439052387662,41.554589544938324,1.5234544444444447
11.021514348261192,9.633609336368561,346.1348296657995,59.19236763742236,1040.2527401909929,3.2842860848681523,1045.2817621992303,3.864150838500567,1046.1453282730076,41.56692732810782,1.5227779999999997
11.01138052945249,9.634012137586623,346.01434262998475,59.188393263577055,1040.412785609383,3.288705339324656,1044.13394020596,3.8676206924915806,1046.230428474847,41.57664958452182,1.522105111111111
10.999962464971649,9.63441336217855,345.8942626154984,59.1843266301458,1040.5490024048495,3.2922025498697516,1043.2539563662096,3.8720047223908516,1046.3278854169519,41.58884682012877,1.5214357777777778
10.989069210656659,9.634813109748876,345.77469020310593,59.180263150693634,1040.6675825580448,3.294189757518243,1042.4509392850198,3.876051679415552,1046.429158301611,41.59766854631582,1.5207699999999997
10.982865466391681,9.63521777594108,345.65443226369456,59.17633026493778,1040.7671158696976,3.295463119576305,1041.5502482994011,3.8806597483554173,1046.4991215791076,41.6048525453847,1.5201077777777778
10.975486117939969,9.635615249583507,345.53363199774014,59.17236449867711,1040.860356143825,3.2978370055872146,1040.3953587774606,3.8850139286442533,1046.5532779436742,41.61018431738502,1.519449111111111
10.964018027739854,9.636015265537074,345.4140410327059,59.16832194513218,1040.9605049470358,3.3004762589647965,1039.2578369778396,3.8866099313959053,1046.6279714092925,41.61843468242979,1.518794
10.950743010849683,9.63642041899672,345.2949112642891,59.16431223645883,1041.0809385723705,3.3003927735437255,1038.2091878597528,3.888060842440555,1046.719528984568,41.624204641656505,1.5181424444444445
10.939865090223487,9.63682021111172,345.17488498021373,59.160344911003975,1041.3008333316218,3.297698295406189,1037.1956857429984,3.8926068184576845,1046.7832595559078,41.62895580236571,1.517471111111111
10.929488307619177,9.637227718962496,345.0545896165577,59.15636883731011,1041.561106359718,3.302017061963857,1035.9135552221844,3.896068410318066,1046.8438292918968,41.63784340162766,1.5168526666666664
10.917676260409776,9.637628617035856,344.93414051205366,59.15238570377872,1041.8211001003447,3.305575513688414,1034.824231964535,3.8986982878477514,1046.9088322886257,41.64512499166121,1.5162377777777778
10.90641877959349,9.638030415407304,344.81481332511817,59.148324242547346,1042.0881766491912,3.309088041737191,1033.8741327001467,3.901574856176981,1046.9662274468683,41.65341652847387,1.5156264444444443
10.895608866811498,9.638419968557717,344.6955553306094,59.14432756994655,1042.3649942769853,3.312218312643906,1032.810771001296,3.90586566261435,1047.0198178520745,41.65860836108814,1.5150186666666665
10.883638148101198,9.638819911131854,344.57518527673955,59.14034146387774,1042.6466806776243,3.3152758789168044,1031.6645678852014,3.9102173999001644,1047.078566188605,41.66445536042039,1.5144144444444443
10.871679802206819,9.63921575012128,344.4565634968923,59.13630375665092,1042.9248028072036,3.318376085468435,1030.4298534325171,3.914307272311186,1047.1289180645947,41.66946432089174,1.5138137777777776
10.86045383520793,9.639613479733436,344.3369929729978,59.13236560296948,1043.2045657232256,3.321627798058326,1029.1715486506284,3.9187398072319364,1047.1781817219985,41.67460535629928,1.5132166666666667
10.850049335839598,9.640012591703991,344.2172634231043,59.12828559851022,1043.4921772906525,3.324489361165583,1028.0200895683352,3.923257289549701,1047.2258763684717,41.679315471613855,1.512623111111111
10.840445447953392,9.640418853593648,344.0970954959262,59.12425689911845,1043.7829652497965,3.326940583484906,1027.0146048251354,3.9277221127775945,1047.2730442719494,41.68476791532412,1.5120331111111112
10.82967561048967,9.64081057058912,343.9779911729861,59.12032338126748,1044.0650307692865,3.3299691782949847,1026.12292843129,3.931528299813135,1047.3286861351594,41.68958867767362,1.5114466666666666
10.81680429918999,9.641204822459256,343.8590671877162,59.11627527026987,1044.3457451268337,3.332939977784601,1025.3708343628073,3.93497005523059,1047.4003714717148,41.694464989625665,1.5108637777777778
10.805708965457804,9.641606666993834,343.7391885366454,59.11229082030441,1044.6245002779576,3.3355119580003647,1024.667615573321,3.939031356551808,1047.4587930854673,41.698289718584576,1.5102844444444445
10.795971420275182,9.641999811447562,343.6191088421428,59.108281527979784,1044.9015567796957,3.337701616848945,1023.9167413933002,3.9441809088684634,1047.5021853882372,41.70306566611495,1.5097086666666666
10.785189250445434,9.642395120702506,343.49866722934473,59.104268889865835,1045.166723666669,3.3345566837703324,1023.9619258760371,3.948619230246977,1047.5575579046665,41.70601718955163,1.5091364444444444
10.773917431662484,9.642793919566182,343.378251351496,59.10023934820711,1045.3487008329635,3.337168568217139,1023.2381958222817,3.9533531943753824,1047.615882226306,41.708602596821954,1.5085937777777776
10.76483115180858,9.643192605101078,343.2585326732584,59.096225600292186,1045.5300941543055,3.3404166228567265,1022.4596358691161,3.958527794347243,1047.6645350006775,41.71067780296012,1.5080546666666668
10.756061958717856,9.643589679795442,343.13929121867324,59.0922432062726,1045.7129221364864,3.344663923770056,1021.6215268884838,3.9621830295030325,1047.7128301280673,41.71212856406306,1.5075273333333332
10.74595320632565,9.643990010178717,343.01983072766126,59.08823505809264,1045.9025811175616,3.347805449847222,1020.9776799377364,3.964762550841889,1047.7720413348472,41.71434212969632,1.5070035555555554
10.735704931098592,9.644394313185453,342.90020152387996,59.08426138470866,1046.0914765390867,3.350412881715138,1020.6369941983775,3.967241943140851,1047.8317290308219,41.71633691550372,1.5064833333333334
10.7268276507933,9.6447925099525,342.77968381880015,59.080314318361594,1046.2818069157124,3.3525744807483084,1020.4276260204111,3.970694665249465,1047.8783583957356,41.71817112341154,1.5059666666666667
10.715230299093255,9.645195602353201,342.65982347955867,59.07628651780432,1046.460832844964,3.3547616098062827,1020.1257560609872,3.974256682834437,1047.9475248092829,41.72203747668172,1.5054535555555553
10.699777289505873,9.645596436181078,342.5401633773528,59.072288651789556,1046.6220033791458,3.3574221019360437,1019.6965542537251,3.97726324770876,1048.0787063361026,41.72730438680421,1.504944
10.687411003341031,9.645996769619135,342.41962929381623,59.06821607509673,1046.7655444131572,3.3606410708923447,1019.2304913830674,3.982126782029471,1048.1636479624835,41.729975369935005,1.504438
10.679356444054104,9.6464002251254,342.29928374633334,59.06415949135787,1046.905972889239,3.3641420163263525,1018.7458269354254,3.989199235246013,1048.216520122383,41.73005029120386,1.5039355555555556
10.671803535761141,9.646800812126523,342.18016501269847,59.060192036400075,1047.0520766442735,3.368818122999344,1018.3616855741194,3.995209810664319,1048.268780936973,41.731559768213266,1.5034366666666665
10.661085230060456,9.647204687837831,342.0598297265564,59.05618595331215,1047.1988506320035,3.374131244682467,1018.0344132043268,3.998826604109175,1048.3382373544935,41.73459612037415,1.5029533333333334
10.650418905223933,9.647607552962684,341.93992698237514,59.052191213620794,1047.3408543498404,3.3795908502172383,1017.664541427062,4.00169472233326,1048.412832715865,41.738814175178426,1.5024855555555554
10.641923498482871,9.648006323117073,341.81999118418736,59.04819244700779,1047.4763102068719,3.385695939580628,1017.5837955031159,4.005786176163395,1048.458707195633,41.73994474629047,1.5020744444444445
10.632254797867512,9.6484120945703,341.7004362406636,59.04417590641887,1047.5524483379734,3.3860223715502826,1017.9501690683269,4.009994953396087,1048.4846369646193,41.74424423144119,1.5017155555555555
10.622042609265417,9.648810585316484,341.58011045637727,59.04016873200185,1047.6376301779205,3.3886022680815047,1018.2473735963202,4.0137297651014165,1048.5085508202112,41.74963031846264,1.501372222222222
10.61055320582339,9.64921464224021,341.4595776887824,59.036176039525444,1047.7307350438864,3.3916364422697183,1018.5545416690526,4.017782110085522,1048.5321594246907,41.751922175155805,1.5010444444444442
10.600306266018638,9.649619940273091,341.3397656494095,59.03219230921083,1047.8332578007662,3.3958572833921217,1018.7144607950622,4.022538485395041,1048.5561369165437,41.75526435387079,1.5007322222222221
10.5896253230611,9.650018860087222,341.23858829410017,59.02816180241958,1047.9569698202415,3.4008188131080046,1018.8769427989475,4.026827829291519,1048.5752498813422,41.756287016564805,1.5004437777777777
10.578246726174191,9.650424753305662,341.1381743443131,59.0241585484785,1048.11187252462,3.4057285340723427,1019.0632655050094,4.029939687929826,1048.5909318769704,41.75641291544808,1.500170888888889
10.56751534250239,9.650822903813486,341.03805819883814,59.02012571292125,1048.2975523978089,3.410769745707327,1019.267019505202,4.033996566810593,1048.6049365251195,41.75726556530766,1.4999135555555556
10.558169508947692,9.651215103188989,340.9378359029594,59.01614068682989,1048.4987524575854,3.415145003466201,1019.5706780710997,4.038858913308229,1048.6228581573328,41.75990936590288,1.499671777777778
10.548145115515666,9.651619606286497,340.83862289855017,59.012100521700496,1048.710704472479,3.4196341628168856,1019.8700466702727,4.043398337343739,1048.6516854375973,41.76484870257751,1.4994455555555555
10.539351162147153,9.652020723785927,340.7397919943179,59.00814845281784,1048.9293753844192,3.4248317235325896,1020.031093916823,4.047410685320864,1048.6714713087006,41.772080026516726,1.499234888888889
10.531099722976183,9.652419660971121,340.63941200146724,59.004109445088,1049.134582796398,3.430602078447912,1020.0244623605453,4.051596970552237,1048.6830352927172,41.77996786550857,1.4990397777777777
10.521594254364718,9.652816352843681,340.5399524479484,59.00007619306167,1049.3403253879385,3.4361479805704773,1019.7549681977879,4.0554168557994394,1048.6998930853595,41.78691564083705,1.4988602222222223
10.51180280003333,9.65321644161996,340.440358047487,58.99605881794159,1049.5560425866233,3.4425256832345847,1019.4766740900942,4.059717339113869,1048.7165282722026,41.78984029248955,1.4987455555555556
10.50283924139759,9.653616875463417,340.3612730133819,58.99203408706477,1049.7757436374404,3.4475314455798447,1019.1989865379865,4.064200962821167,1048.723820467439,41.79261017030662,1.4986464444444443
10.494112821987496,9.654018979443185,340.3604467667957,58.98799867349326,1050.0058905923152,3.4516148663609036,1019.1324096965661,4.068659236208123,1048.7195412704928,41.79660409443004,1.4985628888888887
10.493277132140175,9.65441872853873,340.39922060280924,58.98402950873032,1050.3174685744668,3.4508693290668067,1019.2584726073724,4.066820940880848,1048.7436648223786,41.79933112292799,1.4985315555555556
10.489181806191151,9.654819670929458,340.4585427596246,58.98001105708318,1050.6322634907865,3.450049123010104,1019.1374809001701,4.068849768190149,1048.8685537268566,41.803116340486625,1.4985377777777777
10.487614035181746,9.655209028566228,340.5784557239364,58.97592526816942,1050.9494865537863,3.4511374063254534,1019.0777191701459,4.071257055257192,1048.9664933251713,41.80679426509653,1.4985595555555555
10.48770475895879,9.655607567061251,340.6978253968861,58.97197779163584,1051.2770089979515,3.4540832670282584,1019.1848700590701,4.071179281967671,1049.0517760694447,41.81084510996085,1.498596888888889
10.484350832345793,9.656007271146384,340.8181752775995,58.96791669879474,1052.2724512883503,3.451836191595712,1018.2853047522791,4.072117785527046,1049.1883761510094,41.818579460887186,1.4987891111111111
10.482989191294031,9.656405957742743,340.9380852871054,58.963952337818974,1053.2757551276552,3.451413848400248,1017.4331363708383,4.072085086704174,1049.309235990146,41.82693191611996,1.498996888888889
10.482623336508818,9.656803622940263,340.97839019049957,58.95989554477076,1053.6162444226075,3.4481993310606915,1017.4932079099399,4.071150117696969,1049.4082900740912,41.831843459999604,1.499740888888889
10.481219216097411,9.657199777228419,341.0013758952349,58.955854230044544,1053.9290377645036,3.446134958384682,1017.5160243787557,4.070376504118919,1049.51794231129,41.834769926125524,1.5005004444444443
10.480033447806575,9.657598654778417,341.0215594811676,58.95187243186608,1054.2248029012826,3.4444187272963176,1017.4048939960032,4.069649460795018,1049.6249677142307,41.83493544153261,1.5012755555555557
10.479453292202257,9.657994805829661,341.04141683975496,58.94781661313667,1054.5046355070533,3.4436821633645422,1017.2844413955769,4.069379378417738,1049.7252707001082,41.835262166269125,1.502066222222222
10.48005101842021,9.658395029136715,341.06157281320253,58.943893425169385,1054.7653558021452,3.4436229174139834,1017.2156417117974,4.069537892460432,1049.8194388861968,41.834408319844385,1.5028724444444443
10.477078153240774,9.658797924315135,341.08177130960223,58.939886512287956,1055.0265247904686,3.447083279026912,1017.0644411867708,4.069334482094704,1049.939012832773,41.83348506811004,1.5037435555555556
10.474105094947925,9.65919847853059,341.10140771102044,58.935869044241564,1055.2537642833854,3.4486775406365076,1017.0345606384442,4.069428446800294,1050.0559599959918,41.83293735004247,1.504630222222222
10.471907983113203,9.659594552091123,341.12101133484816,58.93184979076302,1055.4666186774436,3.448862643125799,1017.0257090348354,4.070226129486284,1050.1658017264176,41.83147669574822,1.5055324444444445
10.470713079722342,9.659992246419272,341.1413068513968,58.927849666014765,1055.683399973966,3.4486334688276084,1016.5485708206303,4.071404549024222,1050.2692695184326,41.832355600359044,1.5064502222222222
10.470687297549198,9.66039108003904,341.1606601477447,58.92385326381637,1055.9149814107832,3.4488569710336003,1015.9551184282348,4.072801681187085,1050.351619035307,41.834589014546935,1.5073835555555557
10.469573411880978,9.660793874860722,341.18024789181555,58.919938442201385,1056.152788035555,3.450276674698588,1015.6421917486327,4.073594292411052,1050.4346656655966,41.83847588014172,1.5083324444444446
10.466845483474142,9.66119763906858,341.19349773391224,58.91590944211049,1056.3804502817216,3.4524315755394683,1015.6521317843814,4.073808617702983,1050.5312482756551,41.839603742680296,1.509296888888889
10.464392904131692,9.661605024324135,341.1733891876313,58.911931677358055,1056.5804531646272,3.4550041599014816,1015.7246488907437,4.074493610407246,1050.6245100740603,41.841416579954796,1.510276888888889
10.462948231101052,9.66200014895978,341.15332898286084,58.90790481727,1056.7389214102943,3.4572919681245966,1015.8714411106729,4.076293173834455,1050.7147502163125,41.84165380499667,1.5112724444444443
10.456733922727961,9.662403691502481,341.064442192195,58.90391489929512,1056.8957775962588,3.4563224394400285,1016.6175118155174,4.080374270423264,1050.7822106970486,41.84451062274962,1.5123862222222222
10.452213629467652,9.66280444399061,340.9641363192394,58.89992899623503,1057.030001383873,3.4565852670948054,1017.1671107439171,4.0852391250570665,1050.8378394541576,41.84429166211737,1.5135155555555557
10.447738027994268,9.663207881559373,340.8637014519852,58.89591087140583,1057.1403346940726,3.4581258599218083,1017.553433925799,4.090529010101628,1050.8825846913005,41.846827563495694,1.5146604444444445
10.43999559733293,9.663607280540303,340.76340256840854,58.891954813450944,1057.2301095320142,3.460734705132562,1017.9656959455026,4.095285151810444,1050.9385208232204,41.848152646092096,1.5158208888888889
10.430780284127978,9.66400698592346,340.6636070257476,58.88795503251037,1057.3071004621634,3.464636421123473,1018.4024575671004,4.099532730225895,1050.9967797352012,41.851082776231216,1.516996888888889
10.424114197762153,9.66440587759812,340.5835090797739,58.8839490169991,1057.4082837704082,3.472565254863064,1018.7422737260522,4.105742227648696,1051.0436091347744,41.853334567812034,1.5182295555555556
10.419484188879718,9.664808560780633,340.5050632721658,58.87247453031169,1057.509277164135,3.479584381773283,1019.0452545200565,4.112860813200124,1051.077820398423,41.85713088090414,1.519477777777778
